time (s)	det(V)
5933.083716	0.020782	
5933.085718	0.021048	
5933.087716	0.016979	
5933.089720	0.015849	
5933.093716	0.013519	
5933.095717	0.010846	
5933.097718	0.010121	
5933.099717	0.008292	
5933.101717	0.006606	
5933.103716	0.002422	
5933.107716	0.000439	
5933.109717	-0.010462	
5933.111717	-0.011557	
5933.115718	-0.015942	
5933.117716	-0.022562	
5933.119717	-0.028683	
5933.121717	-0.034936	
5933.123716	-0.040689	
5933.127716	-0.047361	
5933.129717	-0.062828	
5933.133717	-0.070639	
5933.135717	-0.087123	
5933.137716	-0.098164	
5933.139717	-0.108912	
5933.141717	-0.122177	
5933.145716	-0.134698	
5933.147717	-0.163537	
5933.149716	-0.179672	
5933.151717	-0.195131	
5933.153717	-0.213628	
5933.155717	-0.232861	
5933.157716	-0.253373	
5933.159717	-0.276640	
5933.161717	-0.299550	
5933.163718	-0.324043	
5933.165718	-0.353087	
5933.167717	-0.381119	
5933.171717	-0.409460	
5933.173717	-0.472014	
5933.175717	-0.508048	
5933.177717	-0.545000	
5933.179716	-0.585054	
5933.181716	-0.626303	
5933.183716	-0.670617	
5933.185716	-0.716291	
5933.187717	-0.766027	
5933.189716	-0.815973	
5933.191717	-0.868161	
5933.195717	-0.922870	
5933.197716	-1.032879	
5933.199716	-1.089992	
5933.201717	-1.150364	
5933.203717	-1.210872	
5933.205717	-1.267894	
5933.207716	-1.329942	
5933.209717	-1.396624	
5933.211717	-1.459293	
5933.215716	-1.522411	
5933.217718	-1.633354	
5933.219717	-1.639443	
5933.221716	-1.639505	
5933.223717	-1.639560	
5933.225717	-1.639607	
5933.227716	-1.639624	
5933.229716	-1.639662	
5933.231717	-1.639693	
5933.233717	-1.639683	
5933.237715	-1.639688	
5933.239717	-1.639727	
5933.241716	-1.639719	
5933.243717	-1.639758	
5933.245716	-1.639759	
5933.247717	-1.639726	
5933.249719	-1.639720	
5933.251718	-1.639693	
5933.253716	-1.639675	
5933.255717	-1.639647	
5933.259716	-1.639646	
5933.261717	-1.639578	
5933.263717	-1.639503	
5933.265718	-1.639443	
5933.267716	-1.639334	
5933.269716	-1.617375	
5933.271719	-1.554591	
5933.273716	-1.492421	
5933.275717	-1.430119	
5933.277716	-1.364284	
5933.281716	-1.297902	
5933.283717	-1.174189	
5933.285717	-1.106971	
5933.287717	-1.045752	
5933.289717	-0.982919	
5933.291717	-0.921440	
5933.293717	-0.860631	
5933.295717	-0.799299	
5933.297716	-0.740095	
5933.299717	-0.680391	
5933.301718	-0.621762	
5933.305717	-0.564955	
5933.307717	-0.451132	
5933.309717	-0.399275	
5933.311717	-0.346398	
5933.313717	-0.291247	
5933.317716	-0.235701	
5933.319717	-0.129547	
5933.321717	-0.076012	
5933.325717	-0.021069	
5933.327717	0.086084	
5933.329717	0.139982	
5933.331717	0.193761	
5933.333716	0.247123	
5933.337716	0.303082	
5933.339717	0.408940	
5933.343717	0.461697	
5933.345716	0.577585	
5933.347716	0.633315	
5933.349717	0.692554	
5933.351716	0.753346	
5933.355716	0.812795	
5933.357716	0.935802	
5933.359716	0.996787	
5933.363717	1.058401	
5933.365717	1.185247	
5933.367717	1.243981	
5933.369717	1.302119	
5933.371717	1.363639	
5933.373717	1.421839	
5933.377717	1.481239	
5933.381718	1.599784	
5933.383717	1.616931	
5933.385720	1.617021	
5933.387717	1.617072	
5933.389717	1.617018	
5933.393716	1.617071	
5933.395717	1.617048	
5933.397716	1.617053	
5933.399717	1.617065	
5933.401720	1.617069	
5933.403717	1.617087	
5933.405717	1.617054	
5933.407717	1.617027	
5933.409719	1.617030	
5933.411716	1.617065	
5933.413717	1.617054	
5933.415717	1.617060	
5933.417716	1.617038	
5933.421717	1.617058	
5933.423717	1.617031	
5933.425717	1.616907	
5933.427717	1.616527	
5933.429717	1.609405	
5933.433716	1.561512	
5933.435716	1.440479	
5933.437717	1.384287	
5933.441717	1.328584	
5933.443717	1.218046	
5933.445716	1.163882	
5933.447716	1.104990	
5933.449718	1.050231	
5933.451717	0.997541	
5933.455716	0.941398	
5933.459717	0.838291	
5933.461717	0.744288	
5933.463717	0.699542	
5933.465717	0.657278	
5933.467717	0.616766	
5933.471716	0.578574	
5933.473716	0.503538	
5933.475716	0.470025	
5933.477717	0.438750	
5933.479717	0.412528	
5933.481717	0.385823	
5933.483717	0.361021	
5933.485717	0.336459	
5933.487716	0.312251	
5933.489717	0.289981	
5933.491716	0.267340	
5933.493717	0.246001	
5933.495721	0.228067	
5933.499717	0.211179	
5933.501716	0.181836	
5933.503716	0.167246	
5933.505717	0.154329	
5933.507716	0.140564	
5933.511716	0.128459	
5933.513717	0.106187	
5933.515717	0.098009	
5933.519717	0.089129	
5933.521717	0.074557	
5933.523717	0.067396	
5933.525717	0.060020	
5933.527716	0.054366	
5933.529716	0.048869	
5933.533717	0.042556	
5933.537717	0.034236	
5933.539717	0.026707	
5933.541717	0.022412	
5933.543718	0.018648	
5933.545717	0.015471	
5933.549716	0.013047	
5933.551716	0.007192	
5933.553716	0.004021	
5933.555717	0.002651	
5933.557718	0.000965	
5933.559717	-0.001951	
5933.561717	-0.002226	
5933.563719	-0.003704	
5933.565716	-0.004942	
5933.567717	-0.006682	
5933.569716	-0.007784	
5933.571717	-0.008982	
5933.575718	-0.010608	
5933.577717	-0.012431	
5933.579716	-0.011901	
5933.581716	-0.011735	
5933.583717	-0.012678	
5933.585717	-0.012744	
5933.589715	-0.012980	
5933.591716	-0.014917	
5933.593717	-0.017039	
5933.597717	-0.015610	
5933.599717	-0.015667	
5933.601716	-0.013764	
5933.603717	-0.016116	
5933.605717	-0.015364	
5933.609716	-0.015372	
5933.611716	-0.017848	
5933.615717	-0.017218	
5933.617716	-0.015551	
5933.619717	-0.015109	
5933.621717	-0.016565	
5933.623717	-0.015409	
5933.627716	-0.016417	
5933.629717	-0.016877	
5933.631716	-0.017028	
5933.635717	-0.016635	
5933.637718	-0.014972	
5933.639716	-0.015298	
5933.641716	-0.015061	
5933.643717	-0.015465	
5933.645722	-0.014830	
5933.649717	-0.016192	
5933.653717	-0.014518	
5933.655716	-0.013535	
5933.657719	-0.013895	
5933.659717	-0.014178	
5933.661717	-0.014184	
5933.665716	-0.013813	
5933.667717	-0.014001	
5933.669716	-0.013463	
5933.671717	-0.013718	
5933.673718	-0.012482	
5933.675717	-0.013348	
5933.677716	-0.012191	
5933.679717	-0.011709	
5933.681717	-0.012340	
5933.683716	-0.010746	
5933.685717	-0.011641	
5933.687717	-0.012408	
5933.691717	-0.011253	
5933.693717	-0.011723	
5933.695717	-0.010664	
5933.697717	-0.010269	
5933.699717	-0.009618	
5933.701717	-0.008775	
5933.705716	-0.008915	
5933.707717	-0.010605	
5933.709716	-0.011351	
5933.713717	-0.009685	
5933.715716	-0.008096	
5933.717717	-0.007921	
5933.719716	-0.007619	
5933.721717	-0.007301	
5933.725715	-0.007624	
5933.727717	-0.008641	
5933.731719	-0.008890	
5933.733717	-0.007512	
5933.735717	-0.005515	
5933.737717	-0.006674	
5933.739717	-0.005684	
5933.743716	-0.006521	
5933.745716	-0.006969	
5933.747717	-0.007772	
5933.751717	-0.006660	
5933.753718	-0.004665	
5933.755716	-0.005278	
5933.757717	-0.005070	
5933.759716	-0.005790	
5933.761717	-0.004662	
5933.765716	-0.005841	
5933.769717	-0.004508	
5933.771717	-0.003641	
5933.773719	-0.004201	
5933.775717	-0.003867	
5933.777717	-0.004333	
5933.781716	-0.003284	
5933.783716	-0.004273	
5933.785717	-0.003402	
5933.787716	-0.004076	
5933.789717	-0.003445	
5933.791717	-0.002876	
5933.793716	-0.002717	
5933.795716	-0.001436	
5933.797717	-0.003215	
5933.799716	-0.001479	
5933.801716	-0.002460	
5933.803717	-0.002597	
5933.805716	-0.002977	
5933.809717	-0.002518	
5933.811717	-0.002032	
5933.813716	-0.001369	
5933.815717	-0.000707	
5933.817717	0.000105	
5933.821716	-0.000314	
5933.823717	-0.001184	
5933.825716	-0.002507	
5933.829717	-0.001646	
5933.831716	-0.000005	
5933.833717	0.000138	
5933.835717	0.000677	
5933.837716	0.000148	
5933.841716	0.001526	
5933.843717	-0.001578	
5933.847717	-0.000526	
5933.849716	0.001289	
5933.851716	0.002566	
5933.853716	0.001208	
5933.855716	0.002316	
5933.859716	0.001976	
5933.861717	0.001034	
5933.863717	0.000002	
5933.865716	0.000870	
5933.867717	0.002433	
5933.869716	0.002601	
5933.871716	0.002730	
5933.873716	0.002699	
5933.875716	0.002649	
5933.877717	0.002564	
5933.879717	0.002162	
5933.881720	0.002305	
5933.885717	0.001840	
5933.887717	0.002552	
5933.889718	0.003872	
5933.891717	0.004076	
5933.893717	0.002691	
5933.895718	0.004154	
5933.899715	0.003779	
5933.901716	0.004589	
5933.903717	0.003586	
5933.907717	0.004187	
5933.909716	0.004191	
5933.911720	0.005238	
5933.913718	0.005098	
5933.915717	0.005584	
5933.919716	0.006552	
5933.921716	0.005296	
5933.925717	0.004657	
5933.927718	0.006063	
5933.929717	0.006665	
5933.931717	0.006753	
5933.933717	0.007492	
5933.937716	0.008143	
5933.939717	0.007045	
5933.941717	0.005786	
5933.943717	0.005398	
5933.945719	0.007350	
5933.947717	0.007869	
5933.949716	0.009004	
5933.951716	0.009946	
5933.953717	0.008596	
5933.955717	0.009992	
5933.957716	0.007860	
5933.959717	0.006877	
5933.963717	0.008249	
5933.965717	0.008723	
5933.967717	0.010526	
5933.969717	0.010895	
5933.971716	0.010605	
5933.973717	0.010792	
5933.975717	0.010422	
5933.977717	0.009791	
5933.979717	0.010243	
5933.981717	0.009328	
5933.983716	0.009958	
5933.987717	0.011249	
5933.989717	0.012834	
5933.991717	0.012669	
5933.993717	0.011720	
5933.995716	0.012146	
5933.999716	0.012608	
5934.001716	0.012782	
5934.003717	0.012130	
5934.005717	0.012032	
5934.007717	0.013432	
5934.009717	0.012574	
5934.011716	0.013735	
5934.013717	0.013997	
5934.015717	0.014099	
5934.017717	0.015395	
5934.019717	0.013809	
5934.021716	0.012943	
5934.025717	0.013570	
5934.027717	0.013030	
5934.029716	0.015599	
5934.031717	0.015592	
5934.033716	0.016178	
5934.035716	0.017134	
5934.039716	0.016354	
5934.041716	0.014731	
5934.043717	0.013846	
5934.047717	0.015447	
5934.049717	0.017179	
5934.051717	0.018233	
5934.053717	0.017412	
5934.055716	0.017232	
5934.059716	0.018122	
5934.061716	0.015066	
5934.065717	0.015732	
5934.067717	0.017391	
5934.069717	0.017410	
5934.071716	0.016907	
5934.073717	0.016782	
5934.077716	0.016396	
5934.079716	0.014397	
5934.081717	0.014033	
5934.083716	0.013840	
5934.085717	0.015270	
5934.087717	0.014138	
5934.089716	0.014812	
5934.091717	0.013773	
5934.093716	0.012252	
5934.095716	0.012694	
5934.097716	0.010734	
5934.099716	0.009194	
5934.103716	0.010106	
5934.105717	0.007466	
5934.107716	0.007159	
5934.109718	0.004501	
5934.111716	0.004135	
5934.113717	0.002040	
5934.117716	0.001319	
5934.119717	-0.002996	
5934.121717	-0.007145	
5934.125717	-0.008084	
5934.127717	-0.013240	
5934.129717	-0.014314	
5934.131716	-0.018378	
5934.133716	-0.021525	
5934.137716	-0.023647	
5934.139716	-0.033680	
5934.143717	-0.038152	
5934.145717	-0.047286	
5934.147717	-0.053314	
5934.149717	-0.058892	
5934.151717	-0.063720	
5934.155716	-0.071650	
5934.157717	-0.087645	
5934.159717	-0.098322	
5934.163717	-0.105706	
5934.165717	-0.124905	
5934.167716	-0.135081	
5934.169716	-0.147261	
5934.171717	-0.160252	
5934.173723	-0.173632	
5934.177716	-0.189729	
5934.181717	-0.221773	
5934.183717	-0.256550	
5934.185716	-0.275566	
5934.187716	-0.297951	
5934.189718	-0.321049	
5934.193716	-0.344666	
5934.195717	-0.397914	
5934.197717	-0.425645	
5934.199716	-0.452773	
5934.201717	-0.483781	
5934.203717	-0.518054	
5934.205716	-0.554188	
5934.207717	-0.592980	
5934.209717	-0.633723	
5934.211716	-0.675251	
5934.213717	-0.720788	
5934.215716	-0.766409	
5934.217716	-0.814884	
5934.221717	-0.864902	
5934.223716	-0.969433	
5934.225717	-1.023733	
5934.227717	-1.079835	
5934.229717	-1.137277	
5934.231717	-1.195566	
5934.233717	-1.251080	
5934.235716	-1.309201	
5934.237719	-1.370393	
5934.241717	-1.431846	
5934.243716	-1.551537	
5934.245717	-1.605562	
5934.247717	-1.638685	
5934.249717	-1.639491	
5934.251717	-1.639507	
5934.253716	-1.639561	
5934.255717	-1.639607	
5934.257717	-1.639644	
5934.259716	-1.639665	
5934.263717	-1.639669	
5934.265717	-1.639700	
5934.267717	-1.639725	
5934.269716	-1.639723	
5934.271717	-1.639714	
5934.273717	-1.639746	
5934.275718	-1.639719	
5934.277717	-1.639684	
5934.279717	-1.639690	
5934.281716	-1.639669	
5934.285716	-1.639618	
5934.287717	-1.639572	
5934.289717	-1.639563	
5934.291717	-1.639521	
5934.293717	-1.639445	
5934.295717	-1.628176	
5934.297716	-1.574196	
5934.299717	-1.516570	
5934.301717	-1.457476	
5934.305716	-1.397614	
5934.307717	-1.274631	
5934.309717	-1.218687	
5934.311716	-1.158109	
5934.313716	-1.096704	
5934.315717	-1.037007	
5934.317717	-0.976096	
5934.319716	-0.917317	
5934.321717	-0.859503	
5934.325717	-0.800195	
5934.327717	-0.683827	
5934.329717	-0.624897	
5934.331717	-0.567658	
5934.333716	-0.510747	
5934.335717	-0.454530	
5934.337717	-0.403312	
5934.339717	-0.348055	
5934.341717	-0.293267	
5934.343717	-0.240754	
5934.345717	-0.184521	
5934.349717	-0.131042	
5934.351716	-0.018094	
5934.353716	0.035448	
5934.355717	0.090297	
5934.357717	0.144932	
5934.361716	0.197090	
5934.363716	0.305729	
5934.365716	0.359843	
5934.367717	0.412918	
5934.371720	0.524103	
5934.373717	0.581445	
5934.375717	0.637783	
5934.377716	0.695951	
5934.379717	0.757226	
5934.383717	0.815351	
5934.387717	0.939909	
5934.389717	1.065567	
5934.391717	1.129024	
5934.393717	1.190735	
5934.395717	1.249541	
5934.399716	1.310417	
5934.401717	1.430855	
5934.403717	1.494157	
5934.405717	1.558551	
5934.407718	1.608352	
5934.409717	1.616606	
5934.411717	1.616878	
5934.413717	1.616960	
5934.415717	1.616992	
5934.417717	1.617020	
5934.419717	1.616988	
5934.421717	1.617008	
5934.423716	1.617066	
5934.427717	1.617045	
5934.429717	1.617028	
5934.431716	1.617076	
5934.433716	1.617041	
5934.435717	1.617063	
5934.439715	1.617039	
5934.441717	1.617094	
5934.443717	1.617049	
5934.445717	1.617062	
5934.447717	1.617043	
5934.449717	1.617044	
5934.451717	1.617037	
5934.453717	1.616996	
5934.455717	1.616941	
5934.457716	1.616651	
5934.459717	1.611080	
5934.461717	1.561579	
5934.465716	1.498331	
5934.467717	1.376988	
5934.469717	1.318310	
5934.471716	1.258371	
5934.473716	1.202792	
5934.475717	1.143726	
5934.479716	1.083879	
5934.481717	0.969247	
5934.483717	0.913349	
5934.487717	0.860927	
5934.489715	0.759657	
5934.491717	0.711368	
5934.493717	0.664905	
5934.495717	0.621651	
5934.499716	0.580602	
5934.501717	0.501294	
5934.505717	0.465415	
5934.507717	0.404013	
5934.509716	0.375735	
5934.511717	0.348532	
5934.513716	0.321796	
5934.517716	0.296558	
5934.519717	0.250383	
5934.521717	0.228552	
5934.523717	0.210501	
5934.525717	0.193121	
5934.527717	0.177666	
5934.529717	0.162868	
5934.531716	0.147502	
5934.533717	0.134467	
5934.535717	0.123564	
5934.537717	0.108918	
5934.539716	0.098845	
5934.543717	0.088752	
5934.545717	0.070708	
5934.547716	0.062762	
5934.549716	0.056531	
5934.551716	0.050490	
5934.553717	0.043289	
5934.557716	0.037552	
5934.559716	0.024126	
5934.561717	0.020416	
5934.565717	0.016042	
5934.567716	0.010154	
5934.569717	0.006529	
5934.571716	0.002900	
5934.573718	0.000499	
5934.575716	-0.003279	
5934.579717	-0.007387	
5934.583716	-0.010762	
5934.585717	-0.011795	
5934.587716	-0.014832	
5934.589716	-0.015122	
5934.591716	-0.017055	
5934.595716	-0.018328	
5934.597717	-0.021280	
5934.599717	-0.021973	
5934.601717	-0.021688	
5934.603717	-0.022328	
5934.605718	-0.022196	
5934.607717	-0.022500	
5934.609716	-0.024826	
5934.611717	-0.023987	
5934.613717	-0.024300	
5934.615718	-0.025276	
5934.617717	-0.026030	
5934.619716	-0.025502	
5934.623717	-0.026933	
5934.625717	-0.025907	
5934.627717	-0.026456	
5934.629716	-0.025133	
5934.631718	-0.026184	
5934.635716	-0.024586	
5934.637717	-0.026301	
5934.639718	-0.026647	
5934.643717	-0.026436	
5934.645717	-0.025390	
5934.647717	-0.024425	
5934.649718	-0.024624	
5934.651717	-0.023352	
5934.655716	-0.023777	
5934.657717	-0.023679	
5934.661717	-0.025634	
5934.663717	-0.022997	
5934.665717	-0.022726	
5934.667716	-0.021062	
5934.669716	-0.021823	
5934.673717	-0.021335	
5934.675717	-0.023035	
5934.677717	-0.022151	
5934.681717	-0.021884	
5934.683717	-0.020097	
5934.685717	-0.018432	
5934.687717	-0.019991	
5934.689716	-0.018760	
5934.691717	-0.018575	
5934.695716	-0.020227	
5934.699718	-0.019787	
5934.701716	-0.016697	
5934.703716	-0.016481	
5934.705716	-0.016405	
5934.707717	-0.016172	
5934.711715	-0.017321	
5934.713717	-0.016945	
5934.715717	-0.015958	
5934.717716	-0.016301	
5934.719717	-0.014727	
5934.721717	-0.014393	
5934.723716	-0.014577	
5934.725716	-0.014279	
5934.727716	-0.014021	
5934.729716	-0.013183	
5934.731718	-0.014581	
5934.733717	-0.013975	
5934.735717	-0.013147	
5934.739717	-0.013766	
5934.741717	-0.012085	
5934.743717	-0.013064	
5934.745716	-0.011409	
5934.747716	-0.012197	
5934.751716	-0.010757	
5934.753716	-0.011410	
5934.755716	-0.011305	
5934.759717	-0.011081	
5934.761717	-0.010240	
5934.763717	-0.009415	
5934.765717	-0.009748	
5934.767716	-0.008880	
5934.769717	-0.007605	
5934.773716	-0.009526	
5934.777717	-0.009364	
5934.779716	-0.007665	
5934.781717	-0.008159	
5934.783716	-0.006401	
5934.785717	-0.006717	
5934.789716	-0.007381	
5934.791717	-0.008374	
5934.793716	-0.008563	
5934.795717	-0.006877	
5934.797718	-0.007149	
5934.799716	-0.006209	
5934.801716	-0.004935	
5934.803717	-0.005392	
5934.805717	-0.004817	
5934.807717	-0.004901	
5934.809717	-0.006646	
5934.811717	-0.006416	
5934.815716	-0.005492	
5934.817717	-0.003429	
5934.819717	-0.004544	
5934.821717	-0.003689	
5934.823717	-0.003330	
5934.825716	-0.003932	
5934.829716	-0.003715	
5934.831716	-0.004194	
5934.833717	-0.003620	
5934.837717	-0.003601	
5934.839717	-0.001965	
5934.841717	-0.002396	
5934.843716	-0.003153	
5934.845716	-0.002044	
5934.847717	-0.001581	
5934.851716	-0.001384	
5934.855717	-0.003014	
5934.857716	-0.000997	
5934.859716	-0.001783	
5934.861717	-0.000991	
5934.863716	-0.000365	
5934.867715	0.000093	
5934.869716	-0.000411	
5934.871716	-0.001272	
5934.873717	-0.000256	
5934.875718	-0.000505	
5934.877716	0.000109	
5934.879716	0.000993	
5934.881716	0.000728	
5934.883717	0.001785	
5934.885716	0.002576	
5934.887716	0.000572	
5934.889716	0.001461	
5934.893717	0.000273	
5934.895717	0.001505	
5934.897717	0.001900	
5934.899717	0.002812	
5934.901716	0.003881	
5934.903716	0.003283	
5934.907716	0.003723	
5934.909716	0.001400	
5934.911716	0.002264	
5934.915717	0.002467	
5934.917717	0.004697	
5934.919718	0.004770	
5934.921717	0.004631	
5934.923716	0.005025	
5934.927716	0.004723	
5934.929717	0.004423	
5934.933717	0.003499	
5934.935717	0.006500	
5934.937717	0.006223	
5934.939716	0.006319	
5934.941717	0.006771	
5934.945716	0.006178	
5934.947716	0.005556	
5934.949717	0.005688	
5934.953717	0.007361	
5934.955716	0.008463	
5934.957717	0.008320	
5934.959718	0.006764	
5934.961717	0.008399	
5934.963717	0.008534	
5934.967717	0.007945	
5934.971717	0.008332	
5934.973717	0.009312	
5934.975717	0.009697	
5934.977717	0.009640	
5934.979717	0.010295	
5934.983715	0.010423	
5934.985716	0.009971	
5934.987717	0.009701	
5934.989716	0.009766	
5934.991717	0.011193	
5934.995717	0.012715	
5934.997716	0.011701	
5934.999717	0.012652	
5935.001718	0.013848	
5935.003717	0.011997	
5935.007716	0.011831	
5935.009716	0.011243	
5935.011717	0.013392	
5935.013718	0.014293	
5935.015717	0.015465	
5935.017717	0.015086	
5935.019716	0.015268	
5935.021717	0.016097	
5935.023717	0.014670	
5935.025717	0.013980	
5935.027716	0.014508	
5935.031717	0.015036	
5935.033716	0.017387	
5935.035717	0.018769	
5935.037717	0.017304	
5935.039717	0.018473	
5935.043716	0.018698	
5935.045717	0.017872	
5935.047716	0.016937	
5935.051717	0.018691	
5935.053717	0.020488	
5935.055716	0.021354	
5935.057717	0.021044	
5935.059717	0.020480	
5935.061717	0.021156	
5935.065716	0.020654	
5935.069717	0.021033	
5935.071717	0.022919	
5935.073717	0.023314	
5935.075717	0.023355	
5935.077717	0.023083	
5935.081716	0.024063	
5935.083717	0.022913	
5935.085716	0.024023	
5935.087716	0.023040	
5935.089717	0.024616	
5935.091717	0.025057	
5935.093716	0.025280	
5935.095722	0.025655	
5935.097716	0.025071	
5935.099717	0.026694	
5935.101717	0.026056	
5935.103716	0.025377	
5935.107717	0.024722	
5935.109717	0.024209	
5935.111717	0.026398	
5935.113716	0.027038	
5935.115717	0.026989	
5935.117717	0.027350	
5935.121716	0.027357	
5935.123717	0.025775	
5935.125717	0.024379	
5935.129717	0.024673	
5935.131716	0.025608	
5935.133716	0.025772	
5935.135716	0.025581	
5935.137716	0.024667	
5935.139717	0.024124	
5935.143716	0.022064	
5935.147717	0.020021	
5935.149717	0.019764	
5935.151718	0.020563	
5935.153716	0.017766	
5935.155716	0.015981	
5935.159716	0.015571	
5935.161717	0.010361	
5935.163717	0.007856	
5935.165717	0.006575	
5935.167718	0.005205	
5935.169718	0.003018	
5935.171717	0.000507	
