num crossings	time (s)	maj axis (mm)	min axis (mm)	theta (rad )	slope (V/s)
4231	6353.872099	81.540651	-14.650970	0.968945	2.420793
4233	6355.950019	81.246307	-14.462397	0.945358	2.839829
4235	6358.025496	81.477723	-14.818994	0.954497	3.155598
4239	6362.155222	73.476206	-14.203033	0.954043	2.260794
4241	6364.218037	74.214552	-15.216331	0.973191	1.992406
4243	6366.294613	80.207813	-16.663855	0.985966	2.278811
4245	6368.376004	82.945137	-17.054067	0.978164	2.909845
4247	6370.451785	78.988053	-16.467044	0.949370	2.954757
4249	6372.521447	75.759360	-15.707997	0.944935	2.911672
4251	6374.584006	71.874157	-15.491040	0.949453	2.310822
4253	6376.647150	72.005799	-16.530829	0.970290	1.909812
4255	6378.714449	73.526283	-17.727583	0.996730	1.754042
4257	6380.785868	73.344810	-17.743064	0.989898	2.016804
4259	6382.855115	74.116753	-18.354348	0.997623	1.871723
4261	6384.925843	73.593901	-18.798861	0.999941	1.836693
4263	6386.998217	74.516743	-19.318351	1.014518	1.781435
4265	6389.070657	71.751014	-18.548597	0.990997	1.774348
4267	6391.149033	73.589796	-18.481655	0.988034	2.219170
4269	6393.229285	76.012792	-17.686598	0.950265	2.842110
4271	6395.302445	76.608913	-18.015202	0.931388	2.355795
4273	6397.370716	80.062881	-20.142428	0.951952	2.293733
4275	6399.435325	79.431105	-20.423448	0.972031	2.426077
4277	6401.495823	76.112220	-21.535641	1.017479	1.937522
4279	6403.565065	73.104696	-21.656140	1.019106	1.700231
4281	6405.643139	72.447967	-20.547391	0.987077	1.773536
4283	6407.726455	77.084683	-19.869729	0.955884	2.187535
4285	6409.800347	77.478884	-20.055620	0.939995	2.457926
4287	6411.870004	79.538742	-21.039347	0.951708	2.521664
4289	6413.937981	80.107598	-21.794028	0.953411	2.475656
4291	6416.006153	80.616408	-22.932401	0.974815	2.180983
4293	6418.073203	80.363343	-23.763549	0.988296	2.156059
4295	6420.144373	80.323027	-23.995429	0.989399	2.113909
4297	6422.216365	80.912628	-24.292475	0.990606	2.115342
4299	6424.290027	81.772278	-24.383801	0.984325	2.293452
4301	6426.364885	81.404740	-23.893705	0.959810	2.452564
4303	6428.438961	80.940109	-23.567195	0.956044	2.261963
4305	6430.511908	80.320139	-22.933254	0.937910	2.428970
4307	6432.582009	78.471027	-23.068152	0.954408	2.065619
4309	6434.642654	75.823866	-24.341993	0.989359	1.595694
4311	6436.704965	73.917390	-25.616025	1.002461	1.501246
4313	6438.774548	77.074688	-27.530279	1.023388	1.508674
4317	6442.932323	82.096208	-26.584234	0.962059	2.026911
4319	6445.008969	80.884940	-25.272535	0.937194	2.198932
4321	6447.082941	80.657661	-24.293947	0.912693	2.500613
4323	6449.152322	79.440631	-24.471118	0.920303	2.048279
4325	6451.221905	77.426323	-24.633043	0.927033	1.959639
4327	6453.286700	75.998096	-26.258154	0.963739	1.484179
4329	6455.353509	75.994063	-27.207803	0.977038	1.569317
4333	6459.496438	76.586707	-28.062370	0.985427	1.509634
4335	6461.570768	77.646286	-27.905861	0.968063	1.642554
4337	6463.648383	79.036865	-27.286305	0.944491	1.607673
4341	6467.797480	80.244383	-26.107895	0.885041	2.087920
4343	6469.867163	81.734279	-27.232380	0.882999	1.879866
4345	6471.936463	79.996985	-28.224483	0.909007	1.923684
4347	6473.999967	82.322397	-31.561948	0.956620	1.690940
4349	6476.063252	81.039038	-33.087194	1.003741	1.644814
4351	6478.130373	79.165143	-33.671296	1.028436	1.296669
4353	6480.204318	79.021488	-33.637707	1.037095	1.285244
4355	6482.283421	79.188598	-31.396226	0.977729	1.417420
4359	6486.442967	81.126292	-27.311619	0.848438	2.042850
4361	6488.514294	81.836428	-28.056972	0.846330	1.970218
4363	6490.584358	81.339637	-29.920199	0.881170	1.846170
4365	6492.655765	80.509504	-29.588967	0.855839	1.885040
4367	6494.725698	79.462466	-29.697893	0.859189	1.820704
4369	6496.798408	79.691981	-29.749192	0.850789	1.655907
4371	6498.872072	79.617199	-29.784433	0.845202	1.649656
4373	6500.946729	81.835319	-29.102017	0.829389	1.826215
4375	6503.016949	81.562143	-30.051960	0.850521	1.641010
4377	6505.086034	80.046084	-30.955489	0.871539	1.555646
4379	6507.149126	80.111400	-33.595801	0.933975	1.386959
4381	6509.209831	76.843794	-35.056773	0.952375	1.197493
4383	6511.277893	77.179033	-36.077382	0.953842	1.229743
4387	6515.426626	77.013781	-34.094406	0.875194	1.275810
4389	6517.505873	79.628454	-33.525421	0.856123	1.489113
4391	6519.583983	80.461964	-32.512293	0.830602	1.679914
4393	6521.658244	79.366678	-31.181384	0.799991	1.486174
4395	6523.733944	78.141026	-30.301107	0.780576	1.628622
4397	6525.806003	79.041438	-30.247558	0.781260	1.554052
4399	6527.877883	79.767547	-30.698656	0.783408	1.558834
4401	6529.950471	80.134234	-30.823953	0.779896	1.559686
4403	6532.021613	79.961121	-31.121717	0.779761	1.420216
4405	6534.095175	79.564129	-30.934255	0.771022	1.599481
4407	6536.167523	79.479780	-31.000791	0.765681	1.551568
4409	6538.238446	80.027175	-32.274061	0.784071	1.422278
4411	6540.312255	78.228743	-31.014414	0.749420	1.611635
4413	6542.384167	76.216676	-30.731477	0.734512	1.482404
4415	6544.453204	77.314993	-31.590164	0.734533	1.449471
4417	6546.523919	77.155837	-32.202802	0.738613	1.462534
4419	6548.590705	76.565806	-33.507560	0.753088	1.414210
4421	6550.656290	74.165862	-33.869611	0.757484	1.419914
4423	6552.719736	74.611284	-35.918663	0.797928	1.177837
4425	6554.786371	72.987799	-36.701087	0.818317	1.071460
4427	6556.856928	72.349143	-36.327521	0.821304	1.014538
4429	6558.930590	73.573286	-36.664957	0.827832	0.959474
4431	6561.007091	74.947506	-36.091407	0.816306	1.010508
4433	6563.088762	77.089298	-34.579180	0.773260	1.202095
4435	6565.167472	76.084214	-32.038221	0.713557	1.446241
4437	6567.242141	73.806086	-30.654422	0.671957	1.398635
4439	6569.312142	74.384520	-31.248924	0.672606	1.275222
4441	6571.386675	75.223820	-31.217353	0.660047	1.409019
4443	6573.457776	74.987125	-31.471281	0.658378	1.474345
4445	6575.528955	74.558974	-31.283377	0.651855	1.452454
4447	6577.601730	74.711490	-31.243433	0.648078	1.471723
4449	6579.674218	74.118446	-31.111338	0.645347	1.478244
4451	6581.742790	73.031468	-31.277515	0.648658	1.421740
4453	6583.810899	73.639839	-33.085733	0.680606	1.197337
4455	6585.871646	69.378929	-33.004653	0.683005	1.039337
4457	6587.933835	69.670473	-36.235230	0.740713	0.911960
4459	6590.000902	67.610740	-35.894630	0.725173	0.957662
4461	6592.070412	67.765787	-36.830507	0.730728	0.896874
4463	6594.142925	68.787924	-37.002102	0.718154	1.078544
4465	6596.217703	68.509001	-35.792397	0.693283	1.025582
4467	6598.293955	68.333561	-33.992935	0.649864	1.142010
4469	6600.368446	68.068243	-32.635838	0.622914	1.204273
4471	6602.442825	68.246701	-31.943399	0.601428	1.369935
4473	6604.515508	69.963692	-33.341580	0.616140	1.245157
4477	6608.664482	69.114598	-30.943387	0.570791	1.340104
4479	6610.734749	68.612311	-30.951705	0.567247	1.246804
4481	6612.809807	70.392356	-31.629758	0.561695	1.507740
4483	6614.878401	68.465357	-30.643861	0.553277	1.324568
4485	6616.948870	67.912113	-30.607328	0.550284	1.295421
4487	6619.020815	68.063851	-30.469273	0.540034	1.483301
4489	6621.092491	67.990968	-30.442379	0.534047	1.320082
4491	6623.163438	68.156969	-30.632463	0.534706	1.413509
4493	6625.233400	67.236393	-30.706948	0.535647	1.395664
4495	6627.301502	65.479618	-30.240525	0.525403	1.256402
4497	6629.369957	65.319963	-30.827268	0.528818	1.144046
4501	6633.505226	64.288955	-32.176195	0.559327	1.106390
4503	6635.571487	63.513372	-32.536293	0.560162	1.066348
4505	6637.637823	63.094418	-34.240237	0.597929	1.000000
4507	6639.703694	62.266902	-35.462099	0.624461	0.895411
4509	6641.772669	62.017618	-36.524886	0.647245	0.829351
4511	6643.847176	63.832352	-36.341881	0.638205	0.958637
4513	6645.920920	64.590297	-35.837652	0.625593	0.881142
4515	6648.001095	66.040241	-33.127997	0.559927	1.040415
4517	6650.079742	65.645462	-29.750191	0.487435	1.247144
4519	6652.155418	65.448068	-28.684562	0.469841	1.301660
4521	6654.225149	64.539730	-28.101550	0.453662	1.200747
4523	6656.299184	64.970148	-27.501308	0.432539	1.354630
4525	6658.368508	64.352822	-27.643152	0.438850	1.272281
4527	6660.440435	64.730198	-27.534868	0.431863	1.342491
4529	6662.508574	63.617688	-27.205995	0.424602	1.226939
4531	6664.579735	64.667460	-28.071034	0.438049	1.206364
4533	6666.650051	63.318178	-26.777184	0.411845	1.280471
4535	6668.714602	63.655892	-29.626604	0.467198	1.095816
4537	6670.779882	63.120405	-30.981647	0.494199	1.008305
4539	6672.842070	61.215968	-32.911807	0.533891	0.935597
